zhen
zelda1
zeke
yamahar6
xman
written
windy
willie1
wiggles
wedge
waterpolo
vvvvvvv
vladvlad
vargas
valentino
ultraman
tylers
trivia
trish
topsecre
tittys
tim123
tigre
tiffan
tiff
thrawn
thelast1
teabag
tater
tatata
tanechka
tandem
tail
supernatural
summertime
squire
SPARKY
sonya
sonne
sofiya
social
snacks
slainte
Silver
shibumi
shelton
sheets
shades
sexe
severin
selene
seal
scorpi
santino
salvator
saab9000
rutgers
router
rooter
romaroma
romanova
rincon
rigger
rickster
revolt
retsam
resume
regent
RED123
reborn
raziel
rattler
rastus
raindrop
RAIDERS
ragnar
radio1
qwerty77
qazwsxedcrfvtgb
qaqaqa
princeto
porn69
poopsie
pochta
please1
plaster
piss
penfold
pegasus1
papaya
panpan
pagan
ovation
osgood
opensesame
open123
ololol
Oliver
ohbaby
ocean1
norma
ninguna
nigel
niagara
newhouse
nemo
needit
nbuhtyjr
murmur
mosaic
morozov
monica1
minnesota
mille
miles1
mich
Mature
mattingl
mateusz
mate
mariko
mandolin
mamma
major1
magics
magadan
maddison
louisa
loudog
lotus123
looloo
lombard
lives
Liverpoo
lite
lincoln1
letsplay
leroy1
lenin
lebron23
langley
lacey
labonte
kthjxrf
kosova
kolibri
kleenex
kindred
killah
kayla1
JUNIOR
julieann
juli
joyful
jordyn
joaquin
jenni
javie
james2
jacqui
jackdog
ironman1
incest
idiots
horn
hippos
henley
hell666
helen1
harrys
harpua
hallo1
halibut
guilty
guevara
guesswho
growler
goal
giveme
gforce
gfhjkm12
gfcgjhn
getsdown
georgia1
geology
gbgbcmrf
garter
garnett
gardens
Gabriel
funky1
fuckof
fucing
franck
foxhound
flow
flipmode
fist
fireman1
fine
ferrar
fastcars
fannie
familia
falstaff
evergreen
essence
escobar
error
ericka
edmund
edmond
echo
dutchman
duckhunt
donut
docdoc
dobber
distance
dickey
dewayne
deathrow
dashka
danil
damned
dakine
daffodil
cvbhyjdf
cute
cumeater
cueball
crowley
crowbar
crocodil
creatine
crayon
courier
corpse
coolone
colony
colombo
cobraya
cntgfy
clara
cipher
christel
Chris
checkit
chastity
cesar
cbr600rr
cavalry
catter
camaro1
calcutta
cadman
bushed
buratino
bulls23
buffys
buffalos
budget
brigada
briefs
Brandon
bradshaw
boromir
bootleg
bonzo
blueman
bluedevi
blower
blaise
blackboy
blackass
bionic
bigpun
bignasty
bigbad
belgium
beaumont
baylee
bavaria
barclay
Barbara
balder
badkarma
babygir
Austin
astalavista
argent
anteater
amores
amoremio
allright
alligator
allegra
alanna
academy
939393
8PHroWZ624
7890
7676
74185296
666666a
654321a
515253
4848
4563
44magnum
427900
3465xxx
32165498
31101975
310888
31071993
31071976
310589
310189
31011991
31011984
31011976
30121980
30111991
30091979
30091978
300780
30071984
30071981
300590
30041978
300300
291286
29111981
291084
29061980
29051981
281185
28091983
280884
280882
28071976
280690
28061993
28061987
28051979
28041975
28011980
27121977
271185
270886
27081993
270787
27071979
27071977
27061981
27031982
27031981
27011991
26262626
26121995
26121992
26081984
26071994
26051991
26031993
26011995
258258258
255255
253634
25111983
25091978
25091976
25081979
25071982
25051976
250383
24681
24121979
24071979
24061982
24041979
24011993
24011978
2337
231183
23111981
23111979
23091993
23071977
230588
2305
230487
230486
23031981
23021979
2288
22121991
221188
22111975
22091978
22081980
22061993
22061977
220587
22031992
22021977
220187
211288
21121979
2110
21081983
21071979
21061982
210588
210386
21031982
21021982
21021976
20121976
20111988
20111978
20111974
20101978
20051994
200487
1Letmein
19111992
1910
19091989
19051974
19031991
19011984
19011976
181089
18051994
18051983
18041993
18031992
18021978
1725782
17101983
17081981
170585
17051980
170385
170383
17031978
17011979
16121994
16111991
16091983
16081993
16081981
16081978
16051983
160190
160187
16011993
15121980
15101977
150790
150786
150785
15021982
150185
15011978
14321432
14121994
14091985
14081979
14071993
140689
14031983
14031981
14011993
13791379
1357913579
13121992
13121981
131085
13101981
13101980
130790
13051978
130487
13041982
13041979
13041978
13021982
123rrr
123qwe456
123456asd
123456ab
12345432
123258
1232
121312
121280
12121975
121212q
121085
12101980
120885
12081982
12061995
120588
120579
12051994
120484
120477
12041981
12041979
120390
12031995
12011982
1192
111083
11091981
11081981
11071981
110384
110288
101088
100882
10061993
10061979
10031979
100288
10011981
09071975
09051979
09041983
09031993
09021983
09011983
08121990
080880
08081980
0808
08051991
08041987
08031976
08021982
08011992
08011985
07121981
07111990
07111988
07091994
07091977
07081975
070782
07061983
07031981
061290
060686
06051980
06041993
06011995
06011994
06011983
05121980
05101993
05101985
05101979
05081980
050584
05041977
05021986
0428
04111984
04091982
04071994
04061992
04051976
04051975
04031981
04031977
04021980
0320
03121977
03111983
03101980
0310
0308
030778
03041993
03041982
0302
03011980
02091992
020383
02032009
01121981
01111981
01101981
01092011
01081979
01061977
01051977
01051976
01051970
01012005
